#    E(eV)        YZX            YZY            YZZ            ZXX            ZXY            ZXZ            XYX            XYY            XYZ
   0.00000          0.00000000         -0.00000000          0.00000000         -0.00000000          0.00000000          0.00000000          0.00000000          0.00000000          0.00000000
   0.01000         -0.00000846         -0.00000000          0.00000000          0.00000000         -0.00000846         -0.00000000         -0.00000000         -0.00000000          0.00051167
   0.02000         -0.00003386         -0.00000000          0.00000000         -0.00000000         -0.00003386          0.00000000         -0.00000000          0.00000000          0.00204667
   0.03000         -0.00007618         -0.00000000         -0.00000000         -0.00000000         -0.00007618          0.00000000         -0.00000000         -0.00000000          0.00460500
   0.04000         -0.00013542         -0.00000000         -0.00000000          0.00000000         -0.00013542         -0.00000000         -0.00000000         -0.00000000          0.00818672
   0.05000         -0.00021162         -0.00000000          0.00000000         -0.00000000         -0.00021162          0.00000000         -0.00000000          0.00000000          0.01279182
   0.06000         -0.00030471         -0.00000000         -0.00000000         -0.00000000         -0.00030471          0.00000000         -0.00000000         -0.00000000          0.01842036
   0.07000         -0.00041480         -0.00000000         -0.00000000         -0.00000000         -0.00041480          0.00000000          0.00000000          0.00000000          0.02507240
   0.08000         -0.00054180         -0.00000000          0.00000000         -0.00000000         -0.00054180         -0.00000000         -0.00000000         -0.00000000          0.03274786
   0.09000         -0.00068572         -0.00000000          0.00000000         -0.00000000         -0.00068573          0.00000000         -0.00000000          0.00000000          0.04144687
   0.10000         -0.00084661         -0.00000000          0.00000000          0.00000000         -0.00084661          0.00000000         -0.00000000          0.00000000          0.05116957
   0.11000         -0.00102445         -0.00000000         -0.00000000         -0.00000000         -0.00102445         -0.00000000         -0.00000000         -0.00000000          0.06191606
   0.12000         -0.00121932         -0.00000000         -0.00000000         -0.00000000         -0.00121932          0.00000000         -0.00000000         -0.00000000          0.07368602
   0.13000         -0.00143088         -0.00000000          0.00000000         -0.00000000         -0.00143089          0.00000000         -0.00000000         -0.00000000          0.08647992
   0.14000         -0.00165972         -0.00000000          0.00000000          0.00000000         -0.00165973          0.00000000         -0.00000000         -0.00000000          0.10029739
   0.15000         -0.00190561         -0.00000000         -0.00000000         -0.00000000         -0.00190559          0.00000000         -0.00000000         -0.00000000          0.11513942
   0.16000         -0.00216813         -0.00000000         -0.00000000          0.00000000         -0.00216813          0.00000000          0.00000000          0.00000000          0.13100520
   0.17000         -0.00244783         -0.00000000         -0.00000000          0.00000000         -0.00244781          0.00000000         -0.00000000          0.00000000          0.14789541
   0.18000         -0.00274464         -0.00000000          0.00000000         -0.00000000         -0.00274464         -0.00000000         -0.00000000          0.00000000          0.16581050
   0.19000         -0.00305800         -0.00000000         -0.00000000          0.00000000         -0.00305800          0.00000000          0.00000000         -0.00000000          0.18474868
   0.20000         -0.00338896         -0.00000000          0.00000000         -0.00000000         -0.00338899          0.00000000         -0.00000000          0.00000000          0.20471233
   0.21000         -0.00373672         -0.00000000          0.00000000          0.00000000         -0.00373673          0.00000000         -0.00000000          0.00000000          0.22570029
   0.22000         -0.00410162         -0.00000000          0.00000000          0.00000000         -0.00410162          0.00000000         -0.00000000          0.00000000          0.24771366
   0.23000         -0.00448337         -0.00000000         -0.00000000         -0.00000000         -0.00448337          0.00000000         -0.00000000         -0.00000000          0.27075219
   0.24000         -0.00488228         -0.00000000          0.00000000          0.00000000         -0.00488228          0.00000000          0.00000000          0.00000000          0.29481521
   0.25000         -0.00529805         -0.00000000         -0.00000000         -0.00000001         -0.00529805         -0.00000000          0.00000000          0.00000000          0.31990448
   0.26000         -0.00573105         -0.00000000         -0.00000000         -0.00000000         -0.00573111          0.00000000         -0.00000000         -0.00000000          0.34601843
   0.27000         -0.00618172         -0.00000000          0.00000000          0.00000000         -0.00618175          0.00000000          0.00000000         -0.00000000          0.37315765
   0.28000         -0.00664854         -0.00000000          0.00000000         -0.00000000         -0.00664857         -0.00000000         -0.00000000          0.00000000          0.40132186
   0.29000         -0.00713322         -0.00000000          0.00000000          0.00000000         -0.00713325          0.00000000         -0.00000000         -0.00000000          0.43051404
   0.30000         -0.00763500         -0.00000000         -0.00000000         -0.00000000         -0.00763500          0.00000000          0.00000000          0.00000000          0.46073377
   0.31000         -0.00815484          0.00000000          0.00000000          0.00000001         -0.00815475          0.00000000         -0.00000000          0.00000000          0.49197593
   0.32000         -0.00868922         -0.00000000         -0.00000000         -0.00000000         -0.00868917         -0.00000000          0.00000000          0.00000000          0.52424622
   0.33000         -0.00924176         -0.00000000          0.00000000          0.00000001         -0.00924182         -0.00000000         -0.00000000         -0.00000000          0.55754542
   0.34000         -0.00981265         -0.00000000          0.00000000          0.00000000         -0.00981271         -0.00000000          0.00000000         -0.00000000          0.59186846
   0.35000         -0.01039964         -0.00000000          0.00000000         -0.00000000         -0.01039970         -0.00000000          0.00000000         -0.00000000          0.62722117
   0.36000         -0.01100379         -0.00000000         -0.00000000          0.00000000         -0.01100379         -0.00000000          0.00000000          0.00000000          0.66360146
   0.37000         -0.01162559         -0.00000000         -0.00000000         -0.00000000         -0.01162553         -0.00000000         -0.00000000         -0.00000000          0.70100927
   0.38000         -0.01226282         -0.00000000         -0.00000000          0.00000000         -0.01226282          0.00000000         -0.00000000          0.00000000          0.73944485
   0.39000         -0.01292068         -0.00000000          0.00000000         -0.00000001         -0.01292062          0.00000000         -0.00000000          0.00000000          0.77891010
   0.40000         -0.01359594         -0.00000000          0.00000000         -0.00000000         -0.01359588          0.00000000         -0.00000000          0.00000000          0.81940049
   0.41000         -0.01428580         -0.00000000         -0.00000000         -0.00000000         -0.01428586         -0.00000000         -0.00000000         -0.00000000          0.86092389
   0.42000         -0.01499182         -0.00000000         -0.00000000         -0.00000000         -0.01499176         -0.00000000         -0.00000000         -0.00000000          0.90347815
   0.43000         -0.01571977         -0.00000000         -0.00000000         -0.00000000         -0.01571983          0.00000000         -0.00000000          0.00000000          0.94705456
   0.44000         -0.01646054         -0.00000000         -0.00000000          0.00000001         -0.01646048         -0.00000000          0.00000000          0.00000000          0.99166536
   0.45000         -0.01722175         -0.00000000          0.00000000          0.00000001         -0.01722163          0.00000000          0.00000000         -0.00000000          1.03730297
   0.46000         -0.01800072         -0.00000000          0.00000000         -0.00000000         -0.01800084         -0.00000000          0.00000000          0.00000000          1.08397496
   0.47000         -0.01879382         -0.00000000         -0.00000000         -0.00000001         -0.01879382          0.00000000          0.00000000         -0.00000000          1.13167167
   0.48000         -0.01960766         -0.00000000          0.00000000         -0.00000000         -0.01960766         -0.00000000          0.00000000          0.00000000          1.18040383
   0.49000         -0.02043724         -0.00000000         -0.00000000          0.00000001         -0.02043724          0.00000000          0.00000000          0.00000000          1.23016202
   0.50000         -0.02128756         -0.00000000          0.00000000          0.00000000         -0.02128768         -0.00000000         -0.00000000          0.00000000          1.28095794
   0.51000         -0.02214968         -0.00000000          0.00000000         -0.00000001         -0.02214980          0.00000000          0.00000000          0.00000000          1.33278573
   0.52000         -0.02303398         -0.00000000         -0.00000000          0.00000000         -0.02303374         -0.00000000          0.00000000         -0.00000000          1.38565183
   0.53000         -0.02393401         -0.00000000          0.00000000         -0.00000001         -0.02393377         -0.00000000         -0.00000000         -0.00000000          1.43954217
   0.54000         -0.02485180         -0.00000000          0.00000000         -0.00000000         -0.02485168          0.00000000          0.00000000         -0.00000000          1.49446464
   0.55000         -0.02578783         -0.00000000         -0.00000000         -0.00000001         -0.02578771         -0.00000000          0.00000000          0.00000000          1.55042052
   0.56000         -0.02673888         -0.00000000         -0.00000000         -0.00000001         -0.02673900          0.00000000         -0.00000000          0.00000000          1.60741639
   0.57000         -0.02771151         -0.00000000          0.00000000          0.00000000         -0.02771151         -0.00000000          0.00000000         -0.00000000          1.66543853
   0.58000         -0.02869844         -0.00000000          0.00000000          0.00000001         -0.02869844          0.00000000          0.00000000          0.00000000          1.72449434
   0.59000         -0.02970564         -0.00000000         -0.00000000          0.00000000         -0.02970541          0.00000000          0.00000000         -0.00000000          1.78459513
   0.60000         -0.03072786         -0.00000000          0.00000000         -0.00000001         -0.03072810          0.00000000          0.00000000         -0.00000000          1.84572935
   0.61000         -0.03177226         -0.00000000         -0.00000000         -0.00000001         -0.03177214         -0.00000000         -0.00000000         -0.00000000          1.90789557
   0.62000         -0.03283215         -0.00000000         -0.00000000          0.00000002         -0.03283226          0.00000000          0.00000000          0.00000000          1.97109139
   0.63000         -0.03390813         -0.00000000         -0.00000000          0.00000001         -0.03390813         -0.00000000         -0.00000000          0.00000000          2.03533006
   0.64000         -0.03500509         -0.00000000         -0.00000000         -0.00000002         -0.03500509          0.00000000         -0.00000000          0.00000000          2.10060477
   0.65000         -0.03611851         -0.00000000         -0.00000000          0.00000002         -0.03611827         -0.00000000         -0.00000000          0.00000000          2.16691661
   0.66000         -0.03724909         -0.00000000         -0.00000000         -0.00000001         -0.03724909          0.00000000         -0.00000000         -0.00000000          2.23427367
   0.67000         -0.03839397         -0.00000000          0.00000000          0.00000001         -0.03839421          0.00000000         -0.00000000         -0.00000000          2.30265617
   0.68000         -0.03957295         -0.00000000          0.00000000          0.00000002         -0.03957295         -0.00000000         -0.00000000          0.00000000          2.37209797
   0.69000         -0.04075313         -0.00000000          0.00000000         -0.00000001         -0.04075336          0.00000000         -0.00000000          0.00000000          2.44257307
   0.70000         -0.04195476         -0.00000000          0.00000000         -0.00000004         -0.04195428         -0.00000000          0.00000000         -0.00000000          2.51406193
   0.71000         -0.04317260         -0.00000000          0.00000000         -0.00000001         -0.04317212         -0.00000000         -0.00000000         -0.00000000          2.58661795
   0.72000         -0.04441643         -0.00000000          0.00000000         -0.00000000         -0.04441643          0.00000000         -0.00000000         -0.00000000          2.66019630
   0.73000         -0.04567552         -0.00000000         -0.00000000          0.00000000         -0.04567552          0.00000000         -0.00000000         -0.00000000          2.73484468
   0.74000         -0.04694939         -0.00000000          0.00000000          0.00000003         -0.04694963          0.00000000         -0.00000000         -0.00000000          2.81049299
   0.75000         -0.04824138         -0.00000000         -0.00000000         -0.00000001         -0.04824138         -0.00000000          0.00000000          0.00000000          2.88722301
   0.76000         -0.04955697         -0.00000000         -0.00000000         -0.00000001         -0.04955721          0.00000000         -0.00000000         -0.00000000          2.96499062
   0.77000         -0.05088401         -0.00000000         -0.00000000         -0.00000003         -0.05088353          0.00000000          0.00000000         -0.00000000          3.04379201
   0.78000         -0.05223465         -0.00000000          0.00000000          0.00000002         -0.05223465          0.00000000          0.00000000          0.00000000          3.12363148
   0.79000         -0.05360198         -0.00000000         -0.00000000         -0.00000003         -0.05360174         -0.00000000         -0.00000000         -0.00000000          3.20452523
   0.80000         -0.05498934         -0.00000000         -0.00000000         -0.00000001         -0.05498958          0.00000000          0.00000000         -0.00000000          3.28645086
   0.81000         -0.05639410         -0.00000000         -0.00000000          0.00000001         -0.05639410          0.00000000          0.00000000          0.00000000          3.36944771
   0.82000         -0.05781960         -0.00000000          0.00000000         -0.00000004         -0.05781984          0.00000000          0.00000000          0.00000000          3.45346737
   0.83000         -0.05925989         -0.00000000         -0.00000000          0.00000001         -0.05925989          0.00000000         -0.00000000         -0.00000000          3.53852344
   0.84000         -0.06071258         -0.00000000          0.00000000         -0.00000002         -0.06071210         -0.00000000         -0.00000000         -0.00000000          3.62465763
   0.85000         -0.06219363         -0.00000000          0.00000000         -0.00000000         -0.06219316         -0.00000000         -0.00000000          0.00000000          3.71181941
   0.86000         -0.06369352         -0.00000000          0.00000000         -0.00000001         -0.06369352         -0.00000000         -0.00000000          0.00000000          3.80001974
   0.87000         -0.06521535         -0.00000000         -0.00000000         -0.00000002         -0.06521606          0.00000000          0.00000000         -0.00000000          3.88930130
   0.88000         -0.06675148         -0.00000000          0.00000000         -0.00000001         -0.06675053         -0.00000000          0.00000000         -0.00000000          3.97959995
   0.89000         -0.06829715         -0.00000000         -0.00000000         -0.00000003         -0.06829762          0.00000000         -0.00000000          0.00000000          4.07096148
   0.90000         -0.06986833         -0.00000000         -0.00000000          0.00000000         -0.06986880         -0.00000000          0.00000000          0.00000000          4.16337919
   0.91000         -0.07146120         -0.00000000         -0.00000000         -0.00000001         -0.07146120          0.00000000         -0.00000000          0.00000000          4.25685740
   0.92000         -0.07306933         -0.00000000         -0.00000000          0.00000001         -0.07306886         -0.00000000          0.00000000          0.00000000          4.35138035
   0.93000         -0.07469702         -0.00000000          0.00000000         -0.00000002         -0.07469749          0.00000000          0.00000000         -0.00000000          4.44694901
   0.94000         -0.07634306         -0.00000000          0.00000000          0.00000001         -0.07634354          0.00000000         -0.00000000         -0.00000000          4.54357290
   0.95000         -0.07801867         -0.00000000         -0.00000000          0.00000006         -0.07801819         -0.00000000          0.00000000         -0.00000000          4.64123297
   0.96000         -0.07970285         -0.00000000         -0.00000000         -0.00000001         -0.07970333          0.00000000          0.00000000          0.00000000          4.73998308
   0.97000         -0.08141041         -0.00000000         -0.00000000          0.00000002         -0.08141088         -0.00000000         -0.00000000         -0.00000000          4.83975697
   0.98000         -0.08313799         -0.00000000         -0.00000000          0.00000001         -0.08313704         -0.00000000          0.00000000         -0.00000000          4.94061565
   0.99000         -0.08487701         -0.00000000         -0.00000000         -0.00000002         -0.08487749         -0.00000000         -0.00000000          0.00000000          5.04247665
   1.00000         -0.08664083         -0.00000000         -0.00000000          0.00000006         -0.08664083         -0.00000000         -0.00000000         -0.00000000          5.14545536
   1.01000         -0.08842230         -0.00000000          0.00000000          0.00000002         -0.08842325         -0.00000000         -0.00000000         -0.00000000          5.24949837
   1.02000         -0.09022093         -0.00000000          0.00000000         -0.00000002         -0.09022141          0.00000000         -0.00000000          0.00000000          5.35455894
