#    E(eV)        YZX            YZY            YZZ            ZXX            ZXY            ZXZ            XYX            XYY            XYZ
   0.00000          0.00000000          0.00000000          0.00000000          0.00000000          0.00000000          0.00000000          0.00000000          0.00000000          0.00000000
   0.00600          0.00003994         -0.00000000         -0.00000000         -0.00000000          0.00003994         -0.00000000          0.00000000         -0.00000000          0.00011639
   0.01200          0.00015978         -0.00000000         -0.00000000         -0.00000000          0.00015978          0.00000000          0.00000000         -0.00000000          0.00046554
   0.01800          0.00035950         -0.00000000          0.00000000         -0.00000000          0.00035950          0.00000000          0.00000000         -0.00000000          0.00104747
   0.02400          0.00063911         -0.00000000          0.00000000         -0.00000000          0.00063911          0.00000000          0.00000000          0.00000000          0.00186217
   0.03000          0.00099861         -0.00000000         -0.00000000         -0.00000000          0.00099861          0.00000000          0.00000000          0.00000000          0.00290965
   0.03600          0.00143800         -0.00000000         -0.00000000         -0.00000000          0.00143800          0.00000000          0.00000000          0.00000000          0.00418991
   0.04200          0.00195728         -0.00000000          0.00000000         -0.00000000          0.00195728          0.00000000          0.00000000          0.00000000          0.00570295
   0.04800          0.00255646         -0.00000000          0.00000000         -0.00000000          0.00255646         -0.00000000          0.00000000          0.00000000          0.00744879
   0.05400          0.00323553         -0.00000000         -0.00000000         -0.00000000          0.00323553         -0.00000000          0.00000000         -0.00000000          0.00942742
   0.06000          0.00399450         -0.00000000          0.00000000         -0.00000000          0.00399450         -0.00000000          0.00000000          0.00000000          0.01163886
   0.06600          0.00483337         -0.00000000         -0.00000000         -0.00000000          0.00483337          0.00000000          0.00000000          0.00000000          0.01408312
   0.07200          0.00575214         -0.00000000          0.00000000         -0.00000000          0.00575214         -0.00000000          0.00000000          0.00000000          0.01676019
   0.07800          0.00675081         -0.00000000          0.00000000          0.00000000          0.00675081         -0.00000000          0.00000000          0.00000000          0.01967010
   0.08400          0.00782939         -0.00000000         -0.00000000         -0.00000000          0.00782939          0.00000000          0.00000000         -0.00000000          0.02281285
   0.09000          0.00898787         -0.00000000          0.00000000         -0.00000000          0.00898787          0.00000000          0.00000000          0.00000000          0.02618846
   0.09600          0.01022627         -0.00000000          0.00000000         -0.00000000          0.01022627          0.00000000          0.00000000         -0.00000000          0.02979693
   0.10200          0.01154458         -0.00000000          0.00000000         -0.00000000          0.01154458          0.00000000          0.00000000         -0.00000000          0.03363829
   0.10800          0.01294281         -0.00000000          0.00000000         -0.00000000          0.01294281          0.00000000          0.00000000          0.00000000          0.03771254
   0.11400          0.01442096         -0.00000000          0.00000000         -0.00000000          0.01442096          0.00000000          0.00000000          0.00000000          0.04201970
   0.12000          0.01597904         -0.00000000         -0.00000000         -0.00000000          0.01597904          0.00000000          0.00000000          0.00000000          0.04655979
   0.12600          0.01761705         -0.00000000          0.00000000         -0.00000000          0.01761705          0.00000000          0.00000000          0.00000000          0.05133282
   0.13200          0.01933499         -0.00000000         -0.00000000         -0.00000000          0.01933499          0.00000000          0.00000000          0.00000000          0.05633881
   0.13800          0.02113287         -0.00000000          0.00000000         -0.00000000          0.02113287          0.00000000          0.00000000          0.00000000          0.06157778
   0.14400          0.02301069         -0.00000000          0.00000000         -0.00000000          0.02301069         -0.00000000          0.00000000         -0.00000000          0.06704975
   0.15000          0.02496846         -0.00000000          0.00000000         -0.00000000          0.02496846         -0.00000000          0.00000000          0.00000000          0.07275474
   0.15600          0.02700619         -0.00000000          0.00000000         -0.00000000          0.02700619         -0.00000000          0.00000000          0.00000000          0.07869277
   0.16200          0.02912387         -0.00000000         -0.00000000         -0.00000000          0.02912387          0.00000000          0.00000000         -0.00000000          0.08486387
   0.16800          0.03132151         -0.00000000          0.00000000         -0.00000000          0.03132151          0.00000000          0.00000000          0.00000000          0.09126805
   0.17400          0.03359913         -0.00000000          0.00000000         -0.00000000          0.03359913          0.00000000          0.00000000          0.00000000          0.09790534
   0.18000          0.03595672         -0.00000000         -0.00000000         -0.00000000          0.03595672          0.00000000          0.00000000          0.00000000          0.10477576
   0.18600          0.03839429         -0.00000000          0.00000000          0.00000000          0.03839429          0.00000000          0.00000000          0.00000000          0.11187935
   0.19200          0.04091185         -0.00000000          0.00000000         -0.00000000          0.04091185          0.00000000          0.00000000          0.00000000          0.11921612
   0.19800          0.04350941         -0.00000000         -0.00000000         -0.00000000          0.04350941          0.00000000          0.00000000          0.00000000          0.12678610
   0.20400          0.04618696         -0.00000000         -0.00000000         -0.00000000          0.04618696          0.00000000          0.00000000         -0.00000000          0.13458933
   0.21000          0.04894453         -0.00000000          0.00000000         -0.00000000          0.04894453          0.00000000          0.00000000         -0.00000000          0.14262583
   0.21600          0.05178210         -0.00000000         -0.00000000         -0.00000000          0.05178210          0.00000000          0.00000000          0.00000000          0.15089563
   0.22200          0.05469971         -0.00000000          0.00000000         -0.00000000          0.05469971         -0.00000000          0.00000000         -0.00000000          0.15939876
   0.22800          0.05769734         -0.00000000         -0.00000000         -0.00000000          0.05769734          0.00000000          0.00000000         -0.00000000          0.16813526
   0.23400          0.06077501         -0.00000000         -0.00000000         -0.00000000          0.06077501          0.00000000          0.00000000          0.00000000          0.17710515
   0.24000          0.06393272         -0.00000000          0.00000000         -0.00000000          0.06393272          0.00000000          0.00000000         -0.00000000          0.18630847
   0.24600          0.06717049         -0.00000000         -0.00000000         -0.00000000          0.06717049          0.00000000          0.00000000          0.00000000          0.19574525
   0.25200          0.07048832         -0.00000000          0.00000000         -0.00000000          0.07048832          0.00000000          0.00000000          0.00000000          0.20541554
   0.25800          0.07388622         -0.00000000         -0.00000000         -0.00000000          0.07388622          0.00000000          0.00000000          0.00000000          0.21531936
   0.26400          0.07736420         -0.00000000         -0.00000000         -0.00000000          0.07736420          0.00000000          0.00000000          0.00000000          0.22545675
   0.27000          0.08092227         -0.00000000          0.00000000         -0.00000000          0.08092227         -0.00000000          0.00000000          0.00000000          0.23582775
   0.27600          0.08456044         -0.00000000          0.00000000         -0.00000000          0.08456044          0.00000000          0.00000000          0.00000000          0.24643240
   0.28200          0.08827872         -0.00000000          0.00000000          0.00000000          0.08827872         -0.00000000          0.00000000          0.00000000          0.25727073
   0.28800          0.09207711         -0.00000000          0.00000000         -0.00000000          0.09207711          0.00000000          0.00000000         -0.00000000          0.26834280
   0.29400          0.09595563         -0.00000000          0.00000000         -0.00000000          0.09595563          0.00000000          0.00000000         -0.00000000          0.27964864
   0.30000          0.09991429         -0.00000000          0.00000000         -0.00000000          0.09991429         -0.00000000          0.00000000         -0.00000000          0.29118828
   0.30600          0.10395310         -0.00000000          0.00000000         -0.00000000          0.10395310          0.00000000          0.00000000         -0.00000000          0.30296179
   0.31200          0.10807206         -0.00000000         -0.00000000         -0.00000000          0.10807206          0.00000000          0.00000000          0.00000000          0.31496919
   0.31800          0.11227119         -0.00000000         -0.00000000         -0.00000000          0.11227119         -0.00000000          0.00000000         -0.00000000          0.32721053
   0.32400          0.11655050         -0.00000000          0.00000000         -0.00000000          0.11655050          0.00000000          0.00000000          0.00000000          0.33968587
   0.33000          0.12091000         -0.00000000          0.00000000         -0.00000000          0.12091000          0.00000000          0.00000000         -0.00000000          0.35239524
   0.33600          0.12534971         -0.00000000         -0.00000000         -0.00000000          0.12534971          0.00000000          0.00000000          0.00000000          0.36533869
   0.34200          0.12986962         -0.00000000         -0.00000000         -0.00000000          0.12986962         -0.00000000          0.00000000          0.00000000          0.37851628
   0.34800          0.13446977         -0.00000000          0.00000000         -0.00000000          0.13446977          0.00000000          0.00000000          0.00000000          0.39192805
   0.35400          0.13915014         -0.00000000          0.00000000         -0.00000000          0.13915014          0.00000000          0.00000000          0.00000000          0.40557405
   0.36000          0.14391077         -0.00000000          0.00000000         -0.00000000          0.14391077          0.00000000          0.00000000         -0.00000000          0.41945433
   0.36600          0.14875166         -0.00000000          0.00000000         -0.00000000          0.14875166          0.00000000          0.00000000          0.00000000          0.43356894
   0.37200          0.15367283         -0.00000000          0.00000000         -0.00000000          0.15367283          0.00000000          0.00000000          0.00000000          0.44791794
   0.37800          0.15867428         -0.00000000         -0.00000000         -0.00000000          0.15867428          0.00000000          0.00000000          0.00000000          0.46250138
   0.38400          0.16375603         -0.00000000          0.00000000         -0.00000000          0.16375603         -0.00000000          0.00000000         -0.00000000          0.47731932
   0.39000          0.16891809         -0.00000000          0.00000000         -0.00000000          0.16891809         -0.00000000          0.00000000         -0.00000000          0.49237180
   0.39600          0.17416048         -0.00000000          0.00000000         -0.00000000          0.17416048         -0.00000000          0.00000000          0.00000000          0.50765890
   0.40200          0.17948322         -0.00000000         -0.00000000         -0.00000000          0.17948322          0.00000000          0.00000000          0.00000000          0.52318065
   0.40800          0.18488630         -0.00000000          0.00000000         -0.00000000          0.18488630          0.00000000          0.00000000         -0.00000000          0.53893713
   0.41400          0.19036975         -0.00000000         -0.00000000         -0.00000000          0.19036975          0.00000000          0.00000000          0.00000000          0.55492839
   0.42000          0.19593359         -0.00000000          0.00000000         -0.00000000          0.19593359          0.00000000          0.00000000         -0.00000000          0.57115449
   0.42600          0.20157782         -0.00000000          0.00000000         -0.00000000          0.20157782          0.00000000          0.00000000          0.00000000          0.58761549
   0.43200          0.20730247         -0.00000000         -0.00000000          0.00000000          0.20730247         -0.00000000          0.00000000          0.00000000          0.60431145
   0.43800          0.21310754         -0.00000000         -0.00000000         -0.00000000          0.21310754          0.00000000          0.00000000         -0.00000000          0.62124243
   0.44400          0.21899305         -0.00000000          0.00000000         -0.00000000          0.21899305         -0.00000000          0.00000000          0.00000000          0.63840851
   0.45000          0.22495902         -0.00000000         -0.00000000         -0.00000000          0.22495902          0.00000000          0.00000000          0.00000000          0.65580974
   0.45600          0.23100546         -0.00000000          0.00000000         -0.00000000          0.23100546          0.00000000          0.00000000         -0.00000000          0.67344619
   0.46200          0.23713239         -0.00000000         -0.00000000         -0.00000000          0.23713239          0.00000000          0.00000000          0.00000000          0.69131792
   0.46800          0.24333983         -0.00000000         -0.00000000         -0.00000000          0.24333983          0.00000000          0.00000000          0.00000000          0.70942500
   0.47400          0.24962778         -0.00000000          0.00000000         -0.00000000          0.24962778          0.00000000          0.00000000          0.00000000          0.72776750
   0.48000          0.25599627         -0.00000000         -0.00000000         -0.00000000          0.25599627          0.00000000          0.00000000          0.00000000          0.74634548
   0.48600          0.26244532         -0.00000000          0.00000000         -0.00000000          0.26244532         -0.00000000          0.00000000          0.00000000          0.76515903
   0.49200          0.26897493         -0.00000000         -0.00000000         -0.00000000          0.26897493         -0.00000000          0.00000000          0.00000000          0.78420820
   0.49800          0.27558513         -0.00000000          0.00000000         -0.00000000          0.27558513          0.00000000          0.00000000          0.00000000          0.80349307
   0.50400          0.28227594         -0.00000000          0.00000000         -0.00000000          0.28227594          0.00000000          0.00000000          0.00000000          0.82301372
   0.51000          0.28904737         -0.00000000         -0.00000000         -0.00000000          0.28904737          0.00000000          0.00000000          0.00000000          0.84277020
   0.51600          0.29589943         -0.00000000          0.00000000         -0.00000000          0.29589943          0.00000000          0.00000000         -0.00000000          0.86276261
   0.52200          0.30283216         -0.00000000          0.00000000         -0.00000000          0.30283216         -0.00000000          0.00000000          0.00000000          0.88299101
   0.52800          0.30984556         -0.00000000         -0.00000000         -0.00000000          0.30984556          0.00000000          0.00000000         -0.00000000          0.90345548
   0.53400          0.31693965         -0.00000000         -0.00000000         -0.00000000          0.31693965         -0.00000000          0.00000000         -0.00000000          0.92415610
   0.54000          0.32411446         -0.00000000         -0.00000000         -0.00000000          0.32411446         -0.00000000          0.00000000          0.00000000          0.94509294
   0.54600          0.33137000         -0.00000000          0.00000000         -0.00000000          0.33137000          0.00000000          0.00000000          0.00000000          0.96626608
   0.55200          0.33870628         -0.00000000         -0.00000000         -0.00000000          0.33870628          0.00000000          0.00000000         -0.00000000          0.98767560
   0.55800          0.34612334         -0.00000000          0.00000000         -0.00000000          0.34612334          0.00000000          0.00000000         -0.00000000          1.00932159
   0.56400          0.35362118         -0.00000000          0.00000000         -0.00000000          0.35362118          0.00000000          0.00000000         -0.00000000          1.03120412
   0.57000          0.36119983         -0.00000000         -0.00000000         -0.00000000          0.36119983         -0.00000000          0.00000000          0.00000000          1.05332328
   0.57600          0.36885931         -0.00000000         -0.00000000         -0.00000000          0.36885931          0.00000000          0.00000000         -0.00000000          1.07567915
   0.58200          0.37659964         -0.00000000         -0.00000000         -0.00000000          0.37659964         -0.00000000          0.00000000          0.00000000          1.09827181
   0.58800          0.38442084         -0.00000000         -0.00000000         -0.00000000          0.38442084          0.00000000          0.00000000          0.00000000          1.12110135
   0.59400          0.39232292         -0.00000000         -0.00000000         -0.00000000          0.39232292          0.00000000          0.00000000          0.00000000          1.14416786
   0.60000          0.40030591         -0.00000000          0.00000000         -0.00000000          0.40030591          0.00000000          0.00000000          0.00000000          1.16747141
   0.60600          0.40836984         -0.00000000          0.00000000         -0.00000000          0.40836984          0.00000000          0.00000000          0.00000000          1.19101210
   0.61200          0.41651471         -0.00000000          0.00000000         -0.00000000          0.41651471          0.00000000          0.00000000         -0.00000000          1.21479003
