#    E(eV)        YZX            YZY            YZZ            ZXX            ZXY            ZXZ            XYX            XYY            XYZ
   0.00000          0.00000000         -0.00000000          0.00000000         -0.00000000          0.00000000          0.00000000          0.00000000          0.00000000          0.00000000
   0.00600          0.00000940         -0.00000000          0.00000000          0.00000000          0.00000940         -0.00000000          0.00000000         -0.00000000         -0.00002128
   0.01200          0.00003758          0.00000000          0.00000000          0.00000000          0.00003758         -0.00000000         -0.00000000         -0.00000000         -0.00008510
   0.01800          0.00008456          0.00000000          0.00000000         -0.00000000          0.00008456          0.00000000          0.00000000          0.00000000         -0.00019148
   0.02400          0.00015033         -0.00000000         -0.00000000         -0.00000000          0.00015033         -0.00000000          0.00000000          0.00000000         -0.00034042
   0.03000          0.00023489          0.00000000         -0.00000000         -0.00000000          0.00023489         -0.00000000         -0.00000000         -0.00000000         -0.00053190
   0.03600          0.00033824         -0.00000000          0.00000000         -0.00000000          0.00033824         -0.00000000          0.00000000         -0.00000000         -0.00076594
   0.04200          0.00046038         -0.00000000          0.00000000         -0.00000000          0.00046038         -0.00000000          0.00000000          0.00000000         -0.00104254
   0.04800          0.00060131          0.00000000          0.00000000          0.00000000          0.00060131         -0.00000000         -0.00000000          0.00000000         -0.00136169
   0.05400          0.00076104          0.00000000          0.00000000          0.00000000          0.00076104          0.00000000         -0.00000000         -0.00000000         -0.00172340
   0.06000          0.00093957         -0.00000000          0.00000000          0.00000000          0.00093957          0.00000000         -0.00000000         -0.00000000         -0.00212767
   0.06600          0.00113689          0.00000000          0.00000000         -0.00000000          0.00113689         -0.00000000          0.00000000         -0.00000000         -0.00257450
   0.07200          0.00135300          0.00000000         -0.00000000         -0.00000000          0.00135300          0.00000000          0.00000000          0.00000000         -0.00306387
   0.07800          0.00158790         -0.00000000          0.00000000          0.00000000          0.00158790         -0.00000000         -0.00000000          0.00000000         -0.00359584
   0.08400          0.00184162          0.00000000         -0.00000000         -0.00000000          0.00184162         -0.00000000          0.00000000          0.00000000         -0.00417034
   0.09000          0.00211413          0.00000000          0.00000000         -0.00000000          0.00211413          0.00000000          0.00000000         -0.00000000         -0.00478743
   0.09600          0.00240543          0.00000000          0.00000000          0.00000000          0.00240543         -0.00000000          0.00000000         -0.00000000         -0.00544713
   0.10200          0.00271552          0.00000000         -0.00000000         -0.00000000          0.00271552         -0.00000000          0.00000000          0.00000000         -0.00614934
   0.10800          0.00304445         -0.00000000          0.00000000         -0.00000000          0.00304444         -0.00000000          0.00000000         -0.00000000         -0.00689417
   0.11400          0.00339217          0.00000000          0.00000000          0.00000000          0.00339217         -0.00000000          0.00000000          0.00000000         -0.00768155
   0.12000          0.00375871         -0.00000000         -0.00000000         -0.00000000          0.00375871          0.00000000          0.00000000          0.00000000         -0.00851155
   0.12600          0.00414403          0.00000000         -0.00000000          0.00000000          0.00414403          0.00000000          0.00000000         -0.00000000         -0.00938413
   0.13200          0.00454816          0.00000000         -0.00000000         -0.00000000          0.00454817         -0.00000000          0.00000000         -0.00000000         -0.01029924
   0.13800          0.00497111         -0.00000000          0.00000000         -0.00000000          0.00497111         -0.00000000         -0.00000000         -0.00000000         -0.01125701
   0.14400          0.00541289         -0.00000000         -0.00000000          0.00000000          0.00541289          0.00000000         -0.00000000          0.00000000         -0.01225735
   0.15000          0.00587347         -0.00000000          0.00000000          0.00000000          0.00587347         -0.00000000          0.00000000          0.00000000         -0.01330031
   0.15600          0.00635285          0.00000000          0.00000000          0.00000000          0.00635286          0.00000000         -0.00000000          0.00000000         -0.01438585
   0.16200          0.00685107          0.00000000          0.00000000         -0.00000000          0.00685107          0.00000000         -0.00000000          0.00000000         -0.01551409
   0.16800          0.00736810         -0.00000000         -0.00000000         -0.00000000          0.00736811          0.00000000          0.00000000          0.00000000         -0.01668484
   0.17400          0.00790401          0.00000000          0.00000000         -0.00000000          0.00790401          0.00000000         -0.00000000         -0.00000000         -0.01789816
   0.18000          0.00845862         -0.00000000          0.00000000         -0.00000000          0.00845863          0.00000000          0.00000000         -0.00000000         -0.01915427
   0.18600          0.00903216         -0.00000000          0.00000000         -0.00000000          0.00903215          0.00000000          0.00000000          0.00000000         -0.02045294
   0.19200          0.00962456          0.00000000          0.00000000         -0.00000000          0.00962454          0.00000000         -0.00000000         -0.00000000         -0.02179417
   0.19800          0.01023567          0.00000000         -0.00000000          0.00000000          0.01023566         -0.00000000          0.00000000          0.00000000         -0.02317810
   0.20400          0.01086572          0.00000000          0.00000000          0.00000000          0.01086575          0.00000000          0.00000000         -0.00000000         -0.02460472
   0.21000          0.01151464         -0.00000000         -0.00000000         -0.00000000          0.01151464          0.00000000         -0.00000000          0.00000000         -0.02607393
   0.21600          0.01218224          0.00000000         -0.00000000          0.00000000          0.01218224          0.00000000          0.00000000         -0.00000000         -0.02758575
   0.22200          0.01286884         -0.00000000         -0.00000000          0.00000000          0.01286884         -0.00000000         -0.00000000          0.00000000         -0.02914027
   0.22800          0.01357423          0.00000000          0.00000000          0.00000000          0.01357422         -0.00000000         -0.00000000          0.00000000         -0.03073758
   0.23400          0.01429847         -0.00000000          0.00000000         -0.00000000          0.01429846          0.00000000         -0.00000000          0.00000000         -0.03237757
   0.24000          0.01504150          0.00000000         -0.00000000         -0.00000000          0.01504148         -0.00000000         -0.00000000          0.00000000         -0.03406012
   0.24600          0.01580346          0.00000000          0.00000000         -0.00000000          0.01580346          0.00000000         -0.00000000         -0.00000000         -0.03578540
   0.25200          0.01658436          0.00000000         -0.00000000         -0.00000000          0.01658435         -0.00000000         -0.00000000         -0.00000000         -0.03755337
   0.25800          0.01738416          0.00000000         -0.00000000         -0.00000000          0.01738416         -0.00000000         -0.00000000         -0.00000000         -0.03936397
   0.26400          0.01820269          0.00000000          0.00000000         -0.00000000          0.01820266          0.00000000         -0.00000000         -0.00000000         -0.04121742
   0.27000          0.01904015         -0.00000001         -0.00000000          0.00000000          0.01904016          0.00000000         -0.00000000         -0.00000000         -0.04311365
   0.27600          0.01989653         -0.00000000         -0.00000000          0.00000000          0.01989652         -0.00000000          0.00000000         -0.00000000         -0.04505253
   0.28200          0.02077158          0.00000000          0.00000000          0.00000001          0.02077159         -0.00000000         -0.00000000          0.00000001         -0.04703413
   0.28800          0.02166566          0.00000001         -0.00000000          0.00000000          0.02166566          0.00000000          0.00000000         -0.00000000         -0.04905839
   0.29400          0.02257859          0.00000001         -0.00000000         -0.00000000          0.02257865         -0.00000000          0.00000000         -0.00000000         -0.05112564
   0.30000          0.02351039         -0.00000000          0.00000000         -0.00000001          0.02351041          0.00000000          0.00000000         -0.00000000         -0.05323531
   0.30600          0.02446123         -0.00000000         -0.00000000          0.00000000          0.02446124         -0.00000000          0.00000000         -0.00000001         -0.05538791
   0.31200          0.02543100          0.00000000          0.00000000          0.00000000          0.02543098          0.00000000         -0.00000000          0.00000001         -0.05758347
   0.31800          0.02641927          0.00000000          0.00000000          0.00000000          0.02641928          0.00000000          0.00000000          0.00000000         -0.05982178
   0.32400          0.02742688          0.00000000          0.00000000         -0.00000000          0.02742692          0.00000000          0.00000000         -0.00000000         -0.06210271
   0.33000          0.02845340         -0.00000000          0.00000000         -0.00000000          0.02845338         -0.00000000          0.00000000          0.00000000         -0.06442632
   0.33600          0.02949852         -0.00000000          0.00000000         -0.00000000          0.02949850          0.00000000          0.00000000          0.00000001         -0.06679317
   0.34200          0.03056284          0.00000001          0.00000000         -0.00000001          0.03056283          0.00000000          0.00000001          0.00000000         -0.06920265
   0.34800          0.03164605          0.00000001         -0.00000000         -0.00000000          0.03164608          0.00000000          0.00000000         -0.00000000         -0.07165460
   0.35400          0.03274825          0.00000000          0.00000000         -0.00000001          0.03274827          0.00000000          0.00000000         -0.00000000         -0.07414989
   0.36000          0.03386919          0.00000000          0.00000000         -0.00000000          0.03386920          0.00000000          0.00000000         -0.00000000         -0.07668781
   0.36600          0.03500916         -0.00000000         -0.00000000          0.00000000          0.03500915         -0.00000000          0.00000001         -0.00000000         -0.07926856
   0.37200          0.03616800          0.00000001         -0.00000000         -0.00000000          0.03616809          0.00000001          0.00000001         -0.00000000         -0.08189248
   0.37800          0.03734608          0.00000001         -0.00000000         -0.00000000          0.03734609          0.00000001          0.00000000          0.00000000         -0.08455899
   0.38400          0.03854294          0.00000001         -0.00000000         -0.00000001          0.03854293         -0.00000001          0.00000001          0.00000000         -0.08726877
   0.39000          0.03975871         -0.00000001         -0.00000000         -0.00000000          0.03975870          0.00000000          0.00000000          0.00000000         -0.09002092
   0.39600          0.04099341          0.00000001         -0.00000000         -0.00000000          0.04099346         -0.00000001         -0.00000001         -0.00000001         -0.09281641
   0.40200          0.04224686          0.00000000          0.00000000         -0.00000001          0.04224693         -0.00000000         -0.00000001         -0.00000000         -0.09565499
   0.40800          0.04352015          0.00000000          0.00000000          0.00000001          0.04352013          0.00000000         -0.00000000         -0.00000001         -0.09853603
   0.41400          0.04481148         -0.00000001         -0.00000000         -0.00000000          0.04481154         -0.00000000          0.00000000          0.00000000         -0.10146050
   0.42000          0.04612239         -0.00000001          0.00000000          0.00000001          0.04612234          0.00000000          0.00000000         -0.00000000         -0.10442756
   0.42600          0.04745185          0.00000001          0.00000000          0.00000000          0.04745183         -0.00000001         -0.00000000          0.00000000         -0.10743773
   0.43200          0.04880077         -0.00000000          0.00000000         -0.00000002          0.04880083          0.00000000         -0.00000001         -0.00000000         -0.11049058
   0.43800          0.05016824          0.00000001         -0.00000000          0.00000000          0.05016828         -0.00000000         -0.00000001         -0.00000000         -0.11358679
   0.44400          0.05155496         -0.00000000          0.00000000         -0.00000000          0.05155491         -0.00000000         -0.00000000          0.00000000         -0.11672606
   0.45000          0.05296101         -0.00000000         -0.00000000          0.00000001          0.05296095         -0.00000000          0.00000000         -0.00000001         -0.11990826
   0.45600          0.05438565         -0.00000000          0.00000000          0.00000001          0.05438575          0.00000000          0.00000000          0.00000000         -0.12313343
   0.46200          0.05582964          0.00000001          0.00000000         -0.00000001          0.05582968          0.00000001          0.00000000          0.00000000         -0.12640230
   0.46800          0.05729248         -0.00000001         -0.00000000          0.00000001          0.05729239          0.00000000         -0.00000001          0.00000000         -0.12971269
   0.47400          0.05877435          0.00000001         -0.00000000          0.00000000          0.05877436         -0.00000001          0.00000000         -0.00000001         -0.13306782
   0.48000          0.06027564          0.00000001         -0.00000000         -0.00000001          0.06027561         -0.00000001          0.00000000          0.00000002         -0.13646545
   0.48600          0.06179546          0.00000002         -0.00000000         -0.00000000          0.06179544          0.00000001          0.00000000          0.00000000         -0.13990593
   0.49200          0.06333443         -0.00000001         -0.00000000          0.00000001          0.06333432         -0.00000001          0.00000000         -0.00000000         -0.14338976
   0.49800          0.06489290         -0.00000003          0.00000000          0.00000002          0.06489293          0.00000000         -0.00000001          0.00000001         -0.14691696
   0.50400          0.06647024          0.00000001         -0.00000000          0.00000002          0.06647017         -0.00000001         -0.00000000          0.00000000         -0.15048632
   0.51000          0.06806652          0.00000001          0.00000000          0.00000001          0.06806660         -0.00000000          0.00000000          0.00000000         -0.15409996
   0.51600          0.06968217          0.00000000         -0.00000000          0.00000001          0.06968212         -0.00000000          0.00000002         -0.00000002         -0.15775654
   0.52200          0.07131675         -0.00000000          0.00000000          0.00000002          0.07131675          0.00000000         -0.00000001          0.00000002         -0.16145588
   0.52800          0.07297009         -0.00000002          0.00000000          0.00000000          0.07297015         -0.00000001          0.00000001         -0.00000001         -0.16519928
   0.53400          0.07464357          0.00000001          0.00000000          0.00000001          0.07464357         -0.00000001          0.00000001          0.00000002         -0.16898549
   0.54000          0.07633531          0.00000002         -0.00000000          0.00000001          0.07633535          0.00000001          0.00000000          0.00000000         -0.17281491
   0.54600          0.07804640         -0.00000001          0.00000000          0.00000000          0.07804641          0.00000001          0.00000001          0.00000001         -0.17668799
   0.55200          0.07977590         -0.00000000          0.00000000         -0.00000001          0.07977598         -0.00000001         -0.00000001         -0.00000001         -0.18060367
   0.55800          0.08152620          0.00000000         -0.00000000          0.00000001          0.08152618         -0.00000001         -0.00000001          0.00000001         -0.18456198
   0.56400          0.08329418          0.00000001         -0.00000000         -0.00000002          0.08329420          0.00000000          0.00000001          0.00000001         -0.18856552
   0.57000          0.08508192          0.00000000         -0.00000000          0.00000001          0.08508192         -0.00000001         -0.00000000          0.00000001         -0.19261162
   0.57600          0.08688951          0.00000001          0.00000000         -0.00000001          0.08688948         -0.00000001         -0.00000001         -0.00000000         -0.19670027
   0.58200          0.08871560          0.00000000         -0.00000000         -0.00000000          0.08871549          0.00000001         -0.00000001          0.00000001         -0.20083269
   0.58800          0.09056041         -0.00000003          0.00000000          0.00000001          0.09056041          0.00000001         -0.00000000         -0.00000002         -0.20500793
   0.59400          0.09242511          0.00000000          0.00000000         -0.00000001          0.09242511          0.00000001         -0.00000001          0.00000000         -0.20922706
   0.60000          0.09430874         -0.00000000         -0.00000000         -0.00000001          0.09430870         -0.00000001          0.00000001          0.00000001         -0.21349145
   0.60600          0.09621152          0.00000003          0.00000000          0.00000001          0.09621155          0.00000000         -0.00000000         -0.00000003         -0.21779686
   0.61200          0.09813388          0.00000000         -0.00000000          0.00000001          0.09813396          0.00000000         -0.00000000         -0.00000001         -0.22214597
